# Mode: w_R
# Eigenvalue: 352.08868667912196
# Normalization: 1.0000000000000002
# Nodes: 0
# Normalizable: True
chi_GeV_inv,profile,profile_squared
-5.3300000000e+00,1.3554367857e-03,1.8372088801e-06
-5.3193400000e+00,2.7108602758e-03,7.3487634346e-06
-5.3086800000e+00,4.0662571745e-03,1.6534447409e-05
-5.2980200000e+00,5.4216141867e-03,2.9393900389e-05
-5.2873600000e+00,6.7769180173e-03,4.5926617814e-05
-5.2767000000e+00,8.1321553721e-03,6.6131950996e-05
-5.2660400000e+00,9.4873129572e-03,9.0009107148e-05
-5.2553800000e+00,1.0842377480e-02,1.1755714941e-04
-5.2447200000e+00,1.2197335648e-02,1.4877499690e-04
-5.2340600000e+00,1.3552174170e-02,1.8366142473e-04
-5.2234000000e+00,1.4906879756e-02,2.2221506407e-04
-5.2127400000e+00,1.6261439119e-02,2.6443440222e-04
-5.2020800000e+00,1.7615838971e-02,3.1031778264e-04
-5.1914200000e+00,1.8970066026e-02,3.5986340501e-04
-5.1807600000e+00,2.0324107000e-02,4.1306932534e-04
-5.1701000000e+00,2.1677948612e-02,4.6993345602e-04
-5.1594400000e+00,2.3031577581e-02,5.3045356588e-04
-5.1487800000e+00,2.4384980630e-02,5.9462728032e-04
-5.1381200000e+00,2.5738144483e-02,6.6245208140e-04
-5.1274600000e+00,2.7091055865e-02,7.3392530790e-04
-5.1168000000e+00,2.8443701508e-02,8.0904415546e-04
-5.1061400000e+00,2.9796068141e-02,8.8780567666e-04
-5.0954800000e+00,3.1148142500e-02,9.7020678118e-04
-5.0848200000e+00,3.2499911321e-02,1.0562442359e-03
-5.0741600000e+00,3.3851361346e-02,1.1459146650e-03
-5.0635000000e+00,3.5202479317e-02,1.2392145501e-03
-5.0528400000e+00,3.6553251981e-02,1.3361402304e-03
-5.0421800000e+00,3.7903666088e-02,1.4366879029e-03
-5.0315200000e+00,3.9253708392e-02,1.5408536226e-03
-5.0208600000e+00,4.0603365650e-02,1.6486333021e-03
-5.0102000000e+00,4.1952624623e-02,1.7600227128e-03
-4.9995400000e+00,4.3301472076e-02,1.8750174840e-03
-4.9888800000e+00,4.4649894778e-02,1.9936131036e-03
-4.9782200000e+00,4.5997879501e-02,2.1158049186e-03
-4.9675600000e+00,4.7345413024e-02,2.2415881344e-03
-4.9569000000e+00,4.8692482127e-02,2.3709578157e-03
-4.9462400000e+00,5.0039073598e-02,2.5039088866e-03
-4.9355800000e+00,5.1385174228e-02,2.6404361304e-03
-4.9249200000e+00,5.2730770812e-02,2.7805341904e-03
-4.9142600000e+00,5.4075850151e-02,2.9241975696e-03
-4.9036000000e+00,5.5420399052e-02,3.0714206311e-03
-4.8929400000e+00,5.6764404324e-02,3.2221975983e-03
-4.8822800000e+00,5.8107852786e-02,3.3765225554e-03
-4.8716200000e+00,5.9450731257e-02,3.5343894470e-03
-4.8609600000e+00,6.0793026567e-02,3.6957920792e-03
-4.8503000000e+00,6.2134725548e-02,3.8607241190e-03
-4.8396400000e+00,6.3475815040e-02,4.0291790949e-03
-4.8289800000e+00,6.4816281886e-02,4.2011503976e-03
-4.8183200000e+00,6.6156112939e-02,4.3766312793e-03
-4.8076600000e+00,6.7495295056e-02,4.5556148548e-03
-4.7970000000e+00,6.8833815101e-02,4.7380941014e-03
-4.7863400000e+00,7.0171659943e-02,4.9240618592e-03
-4.7756800000e+00,7.1508816460e-02,5.1135108316e-03
-4.7650200000e+00,7.2845271536e-02,5.3064335851e-03
-4.7543600000e+00,7.4181012060e-02,5.5028225502e-03
-4.7437000000e+00,7.5516024930e-02,5.7026700213e-03
-4.7330400000e+00,7.6850297052e-02,5.9059681569e-03
-4.7223800000e+00,7.8183815336e-02,6.1127089805e-03
-4.7117200000e+00,7.9516566702e-02,6.3228843801e-03
-4.7010600000e+00,8.0848538077e-02,6.5364861093e-03
-4.6904000000e+00,8.2179716396e-02,6.7535057869e-03
-4.6797400000e+00,8.3510088600e-02,6.9739348981e-03
-4.6690800000e+00,8.4839641641e-02,7.1977647937e-03
-4.6584200000e+00,8.6168362475e-02,7.4249866916e-03
-4.6477600000e+00,8.7496238070e-02,7.6555916763e-03
-4.6371000000e+00,8.8823255399e-02,7.8895706997e-03
-4.6264400000e+00,9.0149401447e-02,8.1269145813e-03
-4.6157800000e+00,9.1474663205e-02,8.3676140084e-03
-4.6051200000e+00,9.2799027672e-02,8.6116595369e-03
-4.5944600000e+00,9.4122481859e-02,8.8590415913e-03
-4.5838000000e+00,9.5445012783e-02,9.1097504652e-03
-4.5731400000e+00,9.6766607471e-02,9.3637763215e-03
-4.5624800000e+00,9.8087252960e-02,9.6211091932e-03
-4.5518200000e+00,9.9406936294e-02,9.8817389834e-03
-4.5411600000e+00,1.0072564453e-01,1.0145655466e-02
-4.5305000000e+00,1.0204336473e-01,1.0412848286e-02
-4.5198400000e+00,1.0336008397e-01,1.0683306959e-02
-4.5091800000e+00,1.0467578934e-01,1.0957020873e-02
-4.4985200000e+00,1.0599046792e-01,1.1233979290e-02
-4.4878600000e+00,1.0730410683e-01,1.1514171342e-02
-4.4772000000e+00,1.0861669317e-01,1.1797586035e-02
-4.4665400000e+00,1.0992821407e-01,1.2084212249e-02
-4.4558800000e+00,1.1123865667e-01,1.2374038738e-02
-4.4452200000e+00,1.1254800811e-01,1.2667054130e-02
-4.4345600000e+00,1.1385625555e-01,1.2963246928e-02
-4.4239000000e+00,1.1516338615e-01,1.3262605510e-02
-4.4132400000e+00,1.1646938710e-01,1.3565118132e-02
-4.4025800000e+00,1.1777424558e-01,1.3870772922e-02
-4.3919200000e+00,1.1907794879e-01,1.4179557889e-02
-4.3812600000e+00,1.2038048395e-01,1.4491460917e-02
-4.3706000000e+00,1.2168183828e-01,1.4806469767e-02
-4.3599400000e+00,1.2298199901e-01,1.5124572080e-02
-4.3492800000e+00,1.2428095339e-01,1.5445755375e-02
-4.3386200000e+00,1.2557868867e-01,1.5770007049e-02
-4.3279600000e+00,1.2687519214e-01,1.6097314380e-02
-4.3173000000e+00,1.2817045106e-01,1.6427664526e-02
-4.3066400000e+00,1.2946445274e-01,1.6761044524e-02
-4.2959800000e+00,1.3075718448e-01,1.7097441294e-02
-4.2853200000e+00,1.3204863361e-01,1.7436841638e-02
-4.2746600000e+00,1.3333878744e-01,1.7779232237e-02
-4.2640000000e+00,1.3462763334e-01,1.8124599658e-02
-4.2533400000e+00,1.3591515865e-01,1.8472930350e-02
-4.2426800000e+00,1.3720135074e-01,1.8824210646e-02
-4.2320200000e+00,1.3848619701e-01,1.9178426762e-02
-4.2213600000e+00,1.3976968484e-01,1.9535564801e-02
-4.2107000000e+00,1.4105180165e-01,1.9895610748e-02
-4.2000400000e+00,1.4233253486e-01,2.0258550479e-02
-4.1893800000e+00,1.4361187190e-01,2.0624369751e-02
-4.1787200000e+00,1.4488980023e-01,2.0993054211e-02
-4.1680600000e+00,1.4616630732e-01,2.1364589395e-02
-4.1574000000e+00,1.4744138063e-01,2.1738960722e-02
-4.1467400000e+00,1.4871500767e-01,2.2116153506e-02
-4.1360800000e+00,1.4998717594e-01,2.2496152946e-02
-4.1254200000e+00,1.5125787296e-01,2.2878944131e-02
-4.1147600000e+00,1.5252708626e-01,2.3264512044e-02
-4.1041000000e+00,1.5379480341e-01,2.3652841555e-02
-4.0934400000e+00,1.5506101195e-01,2.4043917427e-02
-4.0827800000e+00,1.5632569948e-01,2.4437724317e-02
-4.0721200000e+00,1.5758885358e-01,2.4834246772e-02
-4.0614600000e+00,1.5885046186e-01,2.5233469234e-02
-4.0508000000e+00,1.6011051196e-01,2.5635376040e-02
-4.0401400000e+00,1.6136899151e-01,2.6039951419e-02
-4.0294800000e+00,1.6262588816e-01,2.6447179499e-02
-4.0188200000e+00,1.6388118958e-01,2.6857044299e-02
-4.0081600000e+00,1.6513488347e-01,2.7269529739e-02
-3.9975000000e+00,1.6638695753e-01,2.7684619635e-02
-3.9868400000e+00,1.6763739946e-01,2.8102297699e-02
-3.9761800000e+00,1.6888619702e-01,2.8522547543e-02
-3.9655200000e+00,1.7013333794e-01,2.8945352679e-02
-3.9548600000e+00,1.7137881000e-01,2.9370696516e-02
-3.9442000000e+00,1.7262260097e-01,2.9798562366e-02
-3.9335400000e+00,1.7386469866e-01,3.0228933440e-02
-3.9228800000e+00,1.7510509088e-01,3.0661792853e-02
-3.9122200000e+00,1.7634376547e-01,3.1097123620e-02
-3.9015600000e+00,1.7758071027e-01,3.1534908661e-02
-3.8909000000e+00,1.7881591316e-01,3.1975130799e-02
-3.8802400000e+00,1.8004936201e-01,3.2417772760e-02
-3.8695800000e+00,1.8128104473e-01,3.2862817177e-02
-3.8589200000e+00,1.8251094923e-01,3.3310246588e-02
-3.8482600000e+00,1.8373906345e-01,3.3760043437e-02
-3.8376000000e+00,1.8496537534e-01,3.4212190076e-02
-3.8269400000e+00,1.8618987288e-01,3.4666668764e-02
-3.8162800000e+00,1.8741254405e-01,3.5123461669e-02
-3.8056200000e+00,1.8863337687e-01,3.5582550868e-02
-3.7949600000e+00,1.8985235934e-01,3.6043918347e-02
-3.7843000000e+00,1.9106947952e-01,3.6507546006e-02
-3.7736400000e+00,1.9228472548e-01,3.6973415651e-02
-3.7629800000e+00,1.9349808527e-01,3.7441509005e-02
-3.7523200000e+00,1.9470954702e-01,3.7911807700e-02
-3.7416600000e+00,1.9591909882e-01,3.8384293284e-02
-3.7310000000e+00,1.9712672883e-01,3.8858947218e-02
-3.7203400000e+00,1.9833242518e-01,3.9335750879e-02
-3.7096800000e+00,1.9953617606e-01,3.9814685558e-02
-3.6990200000e+00,2.0073796966e-01,4.0295732463e-02
-3.6883600000e+00,2.0193779419e-01,4.0778872721e-02
-3.6777000000e+00,2.0313563787e-01,4.1264087373e-02
-3.6670400000e+00,2.0433148896e-01,4.1751357382e-02
-3.6563800000e+00,2.0552533574e-01,4.2240663629e-02
-3.6457200000e+00,2.0671716648e-01,4.2731986916e-02
-3.6350600000e+00,2.0790696950e-01,4.3225307965e-02
-3.6244000000e+00,2.0909473312e-01,4.3720607418e-02
-3.6137400000e+00,2.1028044570e-01,4.4217865844e-02
-3.6030800000e+00,2.1146409560e-01,4.4717063730e-02
-3.5924200000e+00,2.1264567122e-01,4.5218181490e-02
-3.5817600000e+00,2.1382516097e-01,4.5721199462e-02
-3.5711000000e+00,2.1500255326e-01,4.6226097909e-02
-3.5604400000e+00,2.1617783656e-01,4.6732857021e-02
-3.5497800000e+00,2.1735099934e-01,4.7241456914e-02
-3.5391200000e+00,2.1852203009e-01,4.7751877633e-02
-3.5284600000e+00,2.1969091731e-01,4.8264099150e-02
-3.5178000000e+00,2.2085764956e-01,4.8778101368e-02
-3.5071400000e+00,2.2202221537e-01,4.9293864118e-02
-3.4964800000e+00,2.2318460333e-01,4.9811367165e-02
-3.4858200000e+00,2.2434480204e-01,5.0330590202e-02
-3.4751600000e+00,2.2550280011e-01,5.0851512858e-02
-3.4645000000e+00,2.2665858619e-01,5.1374114694e-02
-3.4538400000e+00,2.2781214894e-01,5.1898375204e-02
-3.4431800000e+00,2.2896347704e-01,5.2424273817e-02
-3.4325200000e+00,2.3011255920e-01,5.2951789901e-02
-3.4218600000e+00,2.3125938415e-01,5.3480902756e-02
-3.4112000000e+00,2.3240394063e-01,5.4011591622e-02
-3.4005400000e+00,2.3354621743e-01,5.4543835677e-02
-3.3898800000e+00,2.3468620334e-01,5.5077614037e-02
-3.3792200000e+00,2.3582388717e-01,5.5612905759e-02
-3.3685600000e+00,2.3695925776e-01,5.6149689840e-02
-3.3579000000e+00,2.3809230399e-01,5.6687945218e-02
-3.3472400000e+00,2.3922301472e-01,5.7227650773e-02
-3.3365800000e+00,2.4035137888e-01,5.7768785330e-02
-3.3259200000e+00,2.4147738539e-01,5.8311327657e-02
-3.3152600000e+00,2.4260102321e-01,5.8855256465e-02
-3.3046000000e+00,2.4372228132e-01,5.9400550413e-02
-3.2939400000e+00,2.4484114872e-01,5.9947188106e-02
-3.2832800000e+00,2.4595761443e-01,6.0495148095e-02
-3.2726200000e+00,2.4707166750e-01,6.1044408881e-02
-3.2619600000e+00,2.4818329700e-01,6.1594948911e-02
-3.2513000000e+00,2.4929249204e-01,6.2146746586e-02
-3.2406400000e+00,2.5039924172e-01,6.2699780253e-02
-3.2299800000e+00,2.5150353519e-01,6.3254028215e-02
-3.2193200000e+00,2.5260536163e-01,6.3809468724e-02
-3.2086600000e+00,2.5370471022e-01,6.4366079987e-02
-3.1980000000e+00,2.5480157018e-01,6.4923840164e-02
-3.1873400000e+00,2.5589593074e-01,6.5482727371e-02
-3.1766800000e+00,2.5698778118e-01,6.6042719678e-02
-3.1660200000e+00,2.5807711079e-01,6.6603795114e-02
-3.1553600000e+00,2.5916390888e-01,6.7165931664e-02
-3.1447000000e+00,2.6024816478e-01,6.7729107272e-02
-3.1340400000e+00,2.6132986787e-01,6.8293299840e-02
-3.1233800000e+00,2.6240900753e-01,6.8858487232e-02
-3.1127200000e+00,2.6348557318e-01,6.9424647272e-02
-3.1020600000e+00,2.6455955425e-01,6.9991757745e-02
-3.0914000000e+00,2.6563094022e-01,7.0559796400e-02
-3.0807400000e+00,2.6669972056e-01,7.1128740949e-02
-3.0700800000e+00,2.6776588481e-01,7.1698569068e-02
-3.0594200000e+00,2.6882942250e-01,7.2269258401e-02
-3.0487600000e+00,2.6989032319e-01,7.2840786554e-02
-3.0381000000e+00,2.7094857649e-01,7.3413131102e-02
-3.0274400000e+00,2.7200417201e-01,7.3986269590e-02
-3.0167800000e+00,2.7305709939e-01,7.4560179529e-02
-3.0061200000e+00,2.7410734832e-01,7.5134838401e-02
-2.9954600000e+00,2.7515490848e-01,7.5710223658e-02
-2.9848000000e+00,2.7619976959e-01,7.6286312724e-02
-2.9741400000e+00,2.7724192143e-01,7.6863082995e-02
-2.9634800000e+00,2.7828135374e-01,7.7440511842e-02
-2.9528200000e+00,2.7931805636e-01,7.8018576606e-02
-2.9421600000e+00,2.8035201909e-01,7.8597254608e-02
-2.9315000000e+00,2.8138323181e-01,7.9176523142e-02
-2.9208400000e+00,2.8241168439e-01,7.9756359479e-02
-2.9101800000e+00,2.8343736675e-01,8.0336740869e-02
-2.8995200000e+00,2.8446026882e-01,8.0917644539e-02
-2.8888600000e+00,2.8548038058e-01,8.1499047697e-02
-2.8782000000e+00,2.8649769202e-01,8.2080927530e-02
-2.8675400000e+00,2.8751219315e-01,8.2663261208e-02
-2.8568800000e+00,2.8852387402e-01,8.3246025882e-02
-2.8462200000e+00,2.8953272472e-01,8.3829198685e-02
-2.8355600000e+00,2.9053873535e-01,8.4412756738e-02
-2.8249000000e+00,2.9154189603e-01,8.4996677141e-02
-2.8142400000e+00,2.9254219693e-01,8.5580936986e-02
-2.8035800000e+00,2.9353962824e-01,8.6165513346e-02
-2.7929200000e+00,2.9453418017e-01,8.6750383286e-02
-2.7822600000e+00,2.9552584296e-01,8.7335523857e-02
-2.7716000000e+00,2.9651460689e-01,8.7920912101e-02
-2.7609400000e+00,2.9750046226e-01,8.8506525048e-02
-2.7502800000e+00,2.9848339941e-01,8.9092339721e-02
-2.7396200000e+00,2.9946340867e-01,8.9678333135e-02
-2.7289600000e+00,3.0044048046e-01,9.0264482298e-02
-2.7183000000e+00,3.0141460517e-01,9.0850764210e-02
-2.7076400000e+00,3.0238577326e-01,9.1437155869e-02
-2.6969800000e+00,3.0335397519e-01,9.2023634266e-02
-2.6863200000e+00,3.0431920148e-01,9.2610176391e-02
-2.6756600000e+00,3.0528144265e-01,9.3196759228e-02
-2.6650000000e+00,3.0624068927e-01,9.3783359763e-02
-2.6543400000e+00,3.0719693192e-01,9.4369954979e-02
-2.6436800000e+00,3.0815016122e-01,9.4956521860e-02
-2.6330200000e+00,3.0910036783e-01,9.5543037392e-02
-2.6223600000e+00,3.1004754242e-01,9.6129478562e-02
-2.6117000000e+00,3.1099167571e-01,9.6715822359e-02
-2.6010400000e+00,3.1193275842e-01,9.7302045778e-02
-2.5903800000e+00,3.1287078134e-01,9.7888125818e-02
-2.5797200000e+00,3.1380573526e-01,9.8474039481e-02
-2.5690600000e+00,3.1473761100e-01,9.9059763780e-02
-2.5584000000e+00,3.1566639944e-01,9.9645275733e-02
-2.5477400000e+00,3.1659209144e-01,1.0023055236e-01
-2.5370800000e+00,3.1751467795e-01,1.0081557071e-01
-2.5264200000e+00,3.1843414990e-01,1.0140030782e-01
-2.5157600000e+00,3.1935049828e-01,1.0198474075e-01
-2.5051000000e+00,3.2026371410e-01,1.0256884657e-01
-2.4944400000e+00,3.2117378839e-01,1.0315260235e-01
-2.4837800000e+00,3.2208071224e-01,1.0373598520e-01
-2.4731200000e+00,3.2298447675e-01,1.0431897222e-01
-2.4624600000e+00,3.2388507305e-01,1.0490154055e-01
-2.4518000000e+00,3.2478249231e-01,1.0548366731e-01
-2.4411400000e+00,3.2567672573e-01,1.0606532968e-01
-2.4304800000e+00,3.2656776453e-01,1.0664650483e-01
-2.4198200000e+00,3.2745559997e-01,1.0722716995e-01
-2.4091600000e+00,3.2834022334e-01,1.0780730227e-01
-2.3985000000e+00,3.2922162598e-01,1.0838687901e-01
-2.3878400000e+00,3.3009979922e-01,1.0896587744e-01
-2.3771800000e+00,3.3097473446e-01,1.0954427485e-01
-2.3665200000e+00,3.3184642312e-01,1.1012204853e-01
-2.3558600000e+00,3.3271485663e-01,1.1069917583e-01
-2.3452000000e+00,3.3358002650e-01,1.1127563408e-01
-2.3345400000e+00,3.3444192422e-01,1.1185140068e-01
-2.3238800000e+00,3.3530054135e-01,1.1242645303e-01
-2.3132200000e+00,3.3615586946e-01,1.1300076857e-01
-2.3025600000e+00,3.3700790016e-01,1.1357432477e-01
-2.2919000000e+00,3.3785662510e-01,1.1414709912e-01
-2.2812400000e+00,3.3870203594e-01,1.1471906915e-01
-2.2705800000e+00,3.3954412440e-01,1.1529021242e-01
-2.2599200000e+00,3.4038288222e-01,1.1586050651e-01
-2.2492600000e+00,3.4121830117e-01,1.1642992905e-01
-2.2386000000e+00,3.4205037305e-01,1.1699845770e-01
-2.2279400000e+00,3.4287908970e-01,1.1756607015e-01
-2.2172800000e+00,3.4370444299e-01,1.1813274413e-01
-2.2066200000e+00,3.4452642483e-01,1.1869845741e-01
-2.1959600000e+00,3.4534502716e-01,1.1926318778e-01
-2.1853000000e+00,3.4616024193e-01,1.1982691310e-01
-2.1746400000e+00,3.4697206117e-01,1.2038961123e-01
-2.1639800000e+00,3.4778047690e-01,1.2095126011e-01
-2.1533200000e+00,3.4858548119e-01,1.2151183770e-01
-2.1426600000e+00,3.4938706616e-01,1.2207132200e-01
-2.1320000000e+00,3.5018522392e-01,1.2262969105e-01
-2.1213400000e+00,3.5097994667e-01,1.2318692296e-01
-2.1106800000e+00,3.5177122659e-01,1.2374299586e-01
-2.1000200000e+00,3.5255905593e-01,1.2429788792e-01
-2.0893600000e+00,3.5334342696e-01,1.2485157738e-01
-2.0787000000e+00,3.5412433199e-01,1.2540404251e-01
-2.0680400000e+00,3.5490176335e-01,1.2595526163e-01
-2.0573800000e+00,3.5567571343e-01,1.2650521312e-01
-2.0467200000e+00,3.5644617462e-01,1.2705387540e-01
-2.0360600000e+00,3.5721313938e-01,1.2760122694e-01
-2.0254000000e+00,3.5797660017e-01,1.2814724627e-01
-2.0147400000e+00,3.5873654951e-01,1.2869191195e-01
-2.0040800000e+00,3.5949297995e-01,1.2923520263e-01
-1.9934200000e+00,3.6024588406e-01,1.2977709698e-01
-1.9827600000e+00,3.6099525445e-01,1.3031757374e-01
-1.9721000000e+00,3.6174108379e-01,1.3085661170e-01
-1.9614400000e+00,3.6248336475e-01,1.3139418972e-01
-1.9507800000e+00,3.6322209005e-01,1.3193028670e-01
-1.9401200000e+00,3.6395725245e-01,1.3246488161e-01
-1.9294600000e+00,3.6468884473e-01,1.3299795347e-01
-1.9188000000e+00,3.6541685971e-01,1.3352948136e-01
-1.9081400000e+00,3.6614129027e-01,1.3405944444e-01
-1.8974800000e+00,3.6686212928e-01,1.3458782190e-01
-1.8868200000e+00,3.6757936968e-01,1.3511459301e-01
-1.8761600000e+00,3.6829300444e-01,1.3563973712e-01
-1.8655000000e+00,3.6900302655e-01,1.3616323360e-01
-1.8548400000e+00,3.6970942904e-01,1.3668506192e-01
-1.8441800000e+00,3.7041220500e-01,1.3720520161e-01
-1.8335200000e+00,3.7111134752e-01,1.3772363226e-01
-1.8228600000e+00,3.7180684976e-01,1.3824033353e-01
-1.8122000000e+00,3.7249870487e-01,1.3875528513e-01
-1.8015400000e+00,3.7318690609e-01,1.3926846688e-01
-1.7908800000e+00,3.7387144665e-01,1.3977985862e-01
-1.7802200000e+00,3.7455231985e-01,1.4028944031e-01
-1.7695600000e+00,3.7522951901e-01,1.4079719193e-01
-1.7589000000e+00,3.7590303747e-01,1.4130309358e-01
-1.7482400000e+00,3.7657286864e-01,1.4180712540e-01
-1.7375800000e+00,3.7723900595e-01,1.4230926761e-01
-1.7269200000e+00,3.7790144285e-01,1.4280950051e-01
-1.7162600000e+00,3.7856017286e-01,1.4330780448e-01
-1.7056000000e+00,3.7921518951e-01,1.4380415996e-01
-1.6949400000e+00,3.7986648638e-01,1.4429854747e-01
-1.6842800000e+00,3.8051405707e-01,1.4479094763e-01
-1.6736200000e+00,3.8115789524e-01,1.4528134111e-01
-1.6629600000e+00,3.8179799457e-01,1.4576970866e-01
-1.6523000000e+00,3.8243434878e-01,1.4625603113e-01
-1.6416400000e+00,3.8306695163e-01,1.4674028943e-01
-1.6309800000e+00,3.8369579691e-01,1.4722246457e-01
-1.6203200000e+00,3.8432087846e-01,1.4770253762e-01
-1.6096600000e+00,3.8494219014e-01,1.4818048975e-01
-1.5990000000e+00,3.8555972586e-01,1.4865630220e-01
-1.5883400000e+00,3.8617347956e-01,1.4912995631e-01
-1.5776800000e+00,3.8678344522e-01,1.4960143350e-01
-1.5670200000e+00,3.8738961686e-01,1.5007071525e-01
-1.5563600000e+00,3.8799198853e-01,1.5053778316e-01
-1.5457000000e+00,3.8859055432e-01,1.5100261891e-01
-1.5350400000e+00,3.8918530837e-01,1.5146520425e-01
-1.5243800000e+00,3.8977624483e-01,1.5192552104e-01
-1.5137200000e+00,3.9036335792e-01,1.5238355120e-01
-1.5030600000e+00,3.9094664186e-01,1.5283927678e-01
-1.4924000000e+00,3.9152609095e-01,1.5329267989e-01
-1.4817400000e+00,3.9210169949e-01,1.5374374274e-01
-1.4710800000e+00,3.9267346184e-01,1.5419244763e-01
-1.4604200000e+00,3.9324137240e-01,1.5463877696e-01
-1.4497600000e+00,3.9380542558e-01,1.5508271322e-01
-1.4391000000e+00,3.9436561586e-01,1.5552423898e-01
-1.4284400000e+00,3.9492193775e-01,1.5596333692e-01
-1.4177800000e+00,3.9547438578e-01,1.5639998981e-01
-1.4071200000e+00,3.9602295454e-01,1.5683418052e-01
-1.3964600000e+00,3.9656763865e-01,1.5726589202e-01
-1.3858000000e+00,3.9710843275e-01,1.5769510736e-01
-1.3751400000e+00,3.9764533156e-01,1.5812180971e-01
-1.3644800000e+00,3.9817832980e-01,1.5854598232e-01
-1.3538200000e+00,3.9870742224e-01,1.5896760855e-01
-1.3431600000e+00,3.9923260369e-01,1.5938667185e-01
-1.3325000000e+00,3.9975386901e-01,1.5980315579e-01
-1.3218400000e+00,4.0027121307e-01,1.6021704402e-01
-1.3111800000e+00,4.0078463081e-01,1.6062832030e-01
-1.3005200000e+00,4.0129411719e-01,1.6103696849e-01
-1.2898600000e+00,4.0179966721e-01,1.6144297257e-01
-1.2792000000e+00,4.0230127591e-01,1.6184631660e-01
-1.2685400000e+00,4.0279893837e-01,1.6224698475e-01
-1.2578800000e+00,4.0329264970e-01,1.6264496131e-01
-1.2472200000e+00,4.0378240508e-01,1.6304023065e-01
-1.2365600000e+00,4.0426819969e-01,1.6343277728e-01
-1.2259000000e+00,4.0475002876e-01,1.6382258578e-01
-1.2152400000e+00,4.0522788758e-01,1.6420964087e-01
-1.2045800000e+00,4.0570177144e-01,1.6459392735e-01
-1.1939200000e+00,4.0617167572e-01,1.6497543015e-01
-1.1832600000e+00,4.0663759578e-01,1.6535413430e-01
-1.1726000000e+00,4.0709952708e-01,1.6573002495e-01
-1.1619400000e+00,4.0755746506e-01,1.6610308733e-01
-1.1512800000e+00,4.0801140525e-01,1.6647330682e-01
-1.1406200000e+00,4.0846134319e-01,1.6684066888e-01
-1.1299600000e+00,4.0890727446e-01,1.6720515911e-01
-1.1193000000e+00,4.0934919470e-01,1.6756676320e-01
-1.1086400000e+00,4.0978709956e-01,1.6792546697e-01
-1.0979800000e+00,4.1022098475e-01,1.6828125633e-01
-1.0873200000e+00,4.1065084602e-01,1.6863411734e-01
-1.0766600000e+00,4.1107667915e-01,1.6898403614e-01
-1.0660000000e+00,4.1149847996e-01,1.6933099901e-01
-1.0553400000e+00,4.1191624431e-01,1.6967499233e-01
-1.0446800000e+00,4.1232996811e-01,1.7001600260e-01
-1.0340200000e+00,4.1273964729e-01,1.7035401645e-01
-1.0233600000e+00,4.1314527785e-01,1.7068902061e-01
-1.0127000000e+00,4.1354685579e-01,1.7102100194e-01
-1.0020400000e+00,4.1394437719e-01,1.7134994741e-01
-9.9138000000e-01,4.1433783814e-01,1.7167584411e-01
-9.8072000000e-01,4.1472723478e-01,1.7199867927e-01
-9.7006000000e-01,4.1511256329e-01,1.7231844020e-01
-9.5940000000e-01,4.1549381990e-01,1.7263511437e-01
-9.4874000000e-01,4.1587100086e-01,1.7294868935e-01
-9.3808000000e-01,4.1624410247e-01,1.7325915284e-01
-9.2742000000e-01,4.1661312107e-01,1.7356649265e-01
-9.1676000000e-01,4.1697805305e-01,1.7387069673e-01
-9.0610000000e-01,4.1733889482e-01,1.7417175313e-01
-8.9544000000e-01,4.1769564285e-01,1.7446965006e-01
-8.8478000000e-01,4.1804829363e-01,1.7476437581e-01
-8.7412000000e-01,4.1839684371e-01,1.7505591883e-01
-8.6346000000e-01,4.1874128966e-01,1.7534426767e-01
-8.5280000000e-01,4.1908162811e-01,1.7562941102e-01
-8.4214000000e-01,4.1941785573e-01,1.7591133770e-01
-8.3148000000e-01,4.1974996920e-01,1.7619003664e-01
-8.2082000000e-01,4.2007796528e-01,1.7646549691e-01
-8.1016000000e-01,4.2040184074e-01,1.7673770770e-01
-7.9950000000e-01,4.2072159241e-01,1.7700665832e-01
-7.8884000000e-01,4.2103721716e-01,1.7727233823e-01
-7.7818000000e-01,4.2134871188e-01,1.7753473700e-01
-7.6752000000e-01,4.2165607352e-01,1.7779384434e-01
-7.5686000000e-01,4.2195929908e-01,1.7804965008e-01
-7.4620000000e-01,4.2225838556e-01,1.7830214417e-01
-7.3554000000e-01,4.2255333004e-01,1.7855131673e-01
-7.2488000000e-01,4.2284412962e-01,1.7879715796e-01
-7.1422000000e-01,4.2313078146e-01,1.7903965822e-01
-7.0356000000e-01,4.2341328274e-01,1.7927880800e-01
-6.9290000000e-01,4.2369163069e-01,1.7951459792e-01
-6.8224000000e-01,4.2396582258e-01,1.7974701871e-01
-6.7158000000e-01,4.2423585572e-01,1.7997606127e-01
-6.6092000000e-01,4.2450172745e-01,1.8020171661e-01
-6.5026000000e-01,4.2476343519e-01,1.8042397587e-01
-6.3960000000e-01,4.2502097634e-01,1.8064283033e-01
-6.2894000000e-01,4.2527434840e-01,1.8085827141e-01
-6.1828000000e-01,4.2552354887e-01,1.8107029064e-01
-6.0762000000e-01,4.2576857531e-01,1.8127887972e-01
-5.9696000000e-01,4.2600942532e-01,1.8148403046e-01
-5.8630000000e-01,4.2624609653e-01,1.8168573481e-01
-5.7564000000e-01,4.2647858662e-01,1.8188398485e-01
-5.6498000000e-01,4.2670689332e-01,1.8207877280e-01
-5.5432000000e-01,4.2693101437e-01,1.8227009103e-01
-5.4366000000e-01,4.2715094759e-01,1.8245793203e-01
-5.3300000000e-01,4.2736669082e-01,1.8264228842e-01
-5.2234000000e-01,4.2757824194e-01,1.8282315298e-01
-5.1168000000e-01,4.2778559887e-01,1.8300051860e-01
-5.0102000000e-01,4.2798875958e-01,1.8317437833e-01
-4.9036000000e-01,4.2818772208e-01,1.8334472534e-01
-4.7970000000e-01,4.2838248442e-01,1.8351155296e-01
-4.6904000000e-01,4.2857304468e-01,1.8367485463e-01
-4.5838000000e-01,4.2875940100e-01,1.8383462395e-01
-4.4772000000e-01,4.2894155155e-01,1.8399085465e-01
-4.3706000000e-01,4.2911949454e-01,1.8414354059e-01
-4.2640000000e-01,4.2929322823e-01,1.8429267580e-01
-4.1574000000e-01,4.2946275091e-01,1.8443825442e-01
-4.0508000000e-01,4.2962806092e-01,1.8458027073e-01
-3.9442000000e-01,4.2978915663e-01,1.8471871916e-01
-3.8376000000e-01,4.2994603648e-01,1.8485359428e-01
-3.7310000000e-01,4.3009869891e-01,1.8498489080e-01
-3.6244000000e-01,4.3024714243e-01,1.8511260357e-01
-3.5178000000e-01,4.3039136559e-01,1.8523672758e-01
-3.4112000000e-01,4.3053136697e-01,1.8535725795e-01
-3.3046000000e-01,4.3066714520e-01,1.8547418995e-01
-3.1980000000e-01,4.3079869894e-01,1.8558751901e-01
-3.0914000000e-01,4.3092602691e-01,1.8569724067e-01
-2.9848000000e-01,4.3104912785e-01,1.8580335062e-01
-2.8782000000e-01,4.3116800057e-01,1.8590584471e-01
-2.7716000000e-01,4.3128264388e-01,1.8600471891e-01
-2.6650000000e-01,4.3139305667e-01,1.8609996934e-01
-2.5584000000e-01,4.3149923786e-01,1.8619159227e-01
-2.4518000000e-01,4.3160118640e-01,1.8627958410e-01
-2.3452000000e-01,4.3169890129e-01,1.8636394138e-01
-2.2386000000e-01,4.3179238158e-01,1.8644466079e-01
-2.1320000000e-01,4.3188162635e-01,1.8652173917e-01
-2.0254000000e-01,4.3196663471e-01,1.8659517351e-01
-1.9188000000e-01,4.3204740585e-01,1.8666496090e-01
-1.8122000000e-01,4.3212393896e-01,1.8673109862e-01
-1.7056000000e-01,4.3219623330e-01,1.8679358408e-01
-1.5990000000e-01,4.3226428815e-01,1.8685241481e-01
-1.4924000000e-01,4.3232810286e-01,1.8690758852e-01
-1.3858000000e-01,4.3238767678e-01,1.8695910303e-01
-1.2792000000e-01,4.3244300935e-01,1.8700695633e-01
-1.1726000000e-01,4.3249410001e-01,1.8705114654e-01
-1.0660000000e-01,4.3254094826e-01,1.8709167192e-01
-9.5940000000e-02,4.3258355365e-01,1.8712853089e-01
-8.5280000000e-02,4.3262191576e-01,1.8716172199e-01
-7.4620000000e-02,4.3265603420e-01,1.8719124393e-01
-6.3960000000e-02,4.3268590866e-01,1.8721709555e-01
-5.3300000000e-02,4.3271153882e-01,1.8723927583e-01
-4.2640000000e-02,4.3273292445e-01,1.8725778390e-01
-3.1980000000e-02,4.3275006533e-01,1.8727261905e-01
-2.1320000000e-02,4.3276296130e-01,1.8728378067e-01
-1.0660000000e-02,4.3277161222e-01,1.8729126835e-01
0.0000000000e+00,4.3277601802e-01,1.8729508178e-01
1.0660000000e-02,4.3277617866e-01,1.8729522081e-01
2.1320000000e-02,4.3277209412e-01,1.8729168545e-01
3.1980000000e-02,4.3276376446e-01,1.8728447583e-01
4.2640000000e-02,4.3275118977e-01,1.8727359225e-01
5.3300000000e-02,4.3273437016e-01,1.8725903512e-01
6.3960000000e-02,4.3271330583e-01,1.8724080504e-01
7.4620000000e-02,4.3268799697e-01,1.8721890273e-01
8.5280000000e-02,4.3265844388e-01,1.8719332906e-01
9.5940000000e-02,4.3262464686e-01,1.8716408507e-01
1.0660000000e-01,4.3258660629e-01,1.8713117194e-01
1.1726000000e-01,4.3254432262e-01,1.8709459103e-01
1.2792000000e-01,4.3249779637e-01,1.8705434386e-01
1.3858000000e-01,4.3244702814e-01,1.8701043214e-01
1.4924000000e-01,4.3239201866e-01,1.8696285780e-01
1.5990000000e-01,4.3233276881e-01,1.8691162299e-01
1.7056000000e-01,4.3226927968e-01,1.8685673016e-01
1.8122000000e-01,4.3220155267e-01,1.8679818213e-01
1.9188000000e-01,4.3212958955e-01,1.8673598217e-01
2.0254000000e-01,4.3205339274e-01,1.8667013418e-01
2.1320000000e-01,4.3197296549e-01,1.8660064292e-01
2.2386000000e-01,4.3188831237e-01,1.8652751436e-01
2.3452000000e-01,4.3179943981e-01,1.8645075622e-01
2.4518000000e-01,4.3170635705e-01,1.8637037872e-01
2.5584000000e-01,4.3160907748e-01,1.8628639577e-01
2.6650000000e-01,4.3150762067e-01,1.8619882670e-01
2.7716000000e-01,4.3140201535e-01,1.8610769885e-01
2.8782000000e-01,4.3129230394e-01,1.8601305144e-01
2.9848000000e-01,4.3117854918e-01,1.8591494127e-01
3.0914000000e-01,4.3106084410e-01,1.8581345131e-01
3.1980000000e-01,4.3093932680e-01,1.8570870338e-01
3.3046000000e-01,4.3081420240e-01,1.8560087699e-01
3.4112000000e-01,4.3068577557e-01,1.8549023728e-01
3.5178000000e-01,4.3055449856e-01,1.8537717623e-01
3.6244000000e-01,4.3042104190e-01,1.8526227331e-01
3.7310000000e-01,4.3028639743e-01,1.8514638382e-01
3.8376000000e-01,4.3015202710e-01,1.8503076642e-01
3.9442000000e-01,4.3002007396e-01,1.8491726401e-01
4.0508000000e-01,4.2989365310e-01,1.8480855298e-01
4.1574000000e-01,4.2977723461e-01,1.8470847139e-01
4.2640000000e-01,4.2967710676e-01,1.8462241607e-01
4.3706000000e-01,4.2960184413e-01,1.8455774448e-01
4.4772000000e-01,4.2956256428e-01,1.8452399663e-01
4.5838000000e-01,4.2957248836e-01,1.8453252275e-01
4.6904000000e-01,4.2964490974e-01,1.8459474847e-01
4.7970000000e-01,4.2978828278e-01,1.8471796801e-01
4.9036000000e-01,4.2999741379e-01,1.8489777586e-01
5.0102000000e-01,4.3024199508e-01,1.8510817433e-01
5.1168000000e-01,4.3045898114e-01,1.8529493445e-01
5.2234000000e-01,4.3056063177e-01,1.8538245763e-01
5.3300000000e-01,4.3046567453e-01,1.8530069695e-01
5.4366000000e-01,4.3014052787e-01,1.8502087372e-01
5.5432000000e-01,4.2961896518e-01,1.8457245524e-01
5.6498000000e-01,4.2898229212e-01,1.8402580695e-01
5.7564000000e-01,4.2831810463e-01,1.8345639875e-01
5.8630000000e-01,4.2768922897e-01,1.8291807658e-01
5.9696000000e-01,4.2712579013e-01,1.8243644060e-01
6.0762000000e-01,4.2663288693e-01,1.8201562021e-01
6.1828000000e-01,4.2620205337e-01,1.8164819029e-01
6.2894000000e-01,4.2582003880e-01,1.8132270545e-01
6.3960000000e-01,4.2547369026e-01,1.8102786110e-01
6.5026000000e-01,4.2515196369e-01,1.8075419223e-01
6.6092000000e-01,4.2484635244e-01,1.8049442318e-01
6.7158000000e-01,4.2455062612e-01,1.8024323414e-01
6.8224000000e-01,4.2426036172e-01,1.7999685453e-01
6.9290000000e-01,4.2397248140e-01,1.7975266499e-01
7.0356000000e-01,4.2368487120e-01,1.7950887008e-01
7.1422000000e-01,4.2339609178e-01,1.7926425053e-01
7.2488000000e-01,4.2310516893e-01,1.7901798398e-01
7.3554000000e-01,4.2281144609e-01,1.7876951894e-01
7.4620000000e-01,4.2251448216e-01,1.7851848763e-01
7.5686000000e-01,4.2221398164e-01,1.7826464629e-01
7.6752000000e-01,4.2190974714e-01,1.7800783474e-01
7.7818000000e-01,4.2160164725e-01,1.7774794896e-01
7.8884000000e-01,4.2128959486e-01,1.7748492274e-01
7.9950000000e-01,4.2097353262e-01,1.7721871517e-01
8.1016000000e-01,4.2065342315e-01,1.7694930241e-01
8.2082000000e-01,4.2032924247e-01,1.7667667207e-01
8.3148000000e-01,4.2000097558e-01,1.7640081949e-01
8.4214000000e-01,4.1966861353e-01,1.7612174518e-01
8.5280000000e-01,4.1933215143e-01,1.7583945322e-01
8.6346000000e-01,4.1899158711e-01,1.7555395007e-01
8.7412000000e-01,4.1864692025e-01,1.7526524384e-01
8.8478000000e-01,4.1829815179e-01,1.7497334379e-01
8.9544000000e-01,4.1794528350e-01,1.7467826000e-01
9.0610000000e-01,4.1758831775e-01,1.7438000312e-01
9.1676000000e-01,4.1722725730e-01,1.7407858424e-01
9.2742000000e-01,4.1686210520e-01,1.7377401475e-01
9.3808000000e-01,4.1649286470e-01,1.7346630635e-01
9.4874000000e-01,4.1611953920e-01,1.7315547091e-01
9.5940000000e-01,4.1574213222e-01,1.7284152051e-01
9.7006000000e-01,4.1536064736e-01,1.7252446737e-01
9.8072000000e-01,4.1497508829e-01,1.7220432390e-01
9.9138000000e-01,4.1458545875e-01,1.7188110261e-01
1.0020400000e+00,4.1419176254e-01,1.7155481615e-01
1.0127000000e+00,4.1379400349e-01,1.7122547732e-01
1.0233600000e+00,4.1339218549e-01,1.7089309903e-01
1.0340200000e+00,4.1298631249e-01,1.7055769430e-01
1.0446800000e+00,4.1257638844e-01,1.7021927630e-01
1.0553400000e+00,4.1216241737e-01,1.6987785829e-01
1.0660000000e+00,4.1174440334e-01,1.6953345368e-01
1.0766600000e+00,4.1132235044e-01,1.6918607598e-01
1.0873200000e+00,4.1089626282e-01,1.6883573880e-01
1.0979800000e+00,4.1046614465e-01,1.6848245591e-01
1.1086400000e+00,4.1003200016e-01,1.6812624115e-01
1.1193000000e+00,4.0959383359e-01,1.6776710851e-01
1.1299600000e+00,4.0915164925e-01,1.6740507208e-01
1.1406200000e+00,4.0870545147e-01,1.6704014606e-01
1.1512800000e+00,4.0825524464e-01,1.6667234477e-01
1.1619400000e+00,4.0780103316e-01,1.6630168265e-01
1.1726000000e+00,4.0734282150e-01,1.6592817422e-01
1.1832600000e+00,4.0688061414e-01,1.6555183416e-01
1.1939200000e+00,4.0641441562e-01,1.6517267723e-01
1.2045800000e+00,4.0594423052e-01,1.6479071829e-01
1.2152400000e+00,4.0547006345e-01,1.6440597235e-01
1.2259000000e+00,4.0499191905e-01,1.6401845450e-01
1.2365600000e+00,4.0450980202e-01,1.6362817993e-01
1.2472200000e+00,4.0402371709e-01,1.6323516397e-01
1.2578800000e+00,4.0353366902e-01,1.6283942204e-01
1.2685400000e+00,4.0303966263e-01,1.6244096965e-01
1.2792000000e+00,4.0254170275e-01,1.6203982245e-01
1.2898600000e+00,4.0203979428e-01,1.6163599618e-01
1.3005200000e+00,4.0153394213e-01,1.6122950668e-01
1.3111800000e+00,4.0102415127e-01,1.6082036990e-01
1.3218400000e+00,4.0051042669e-01,1.6040860189e-01
1.3325000000e+00,3.9999277345e-01,1.5999421881e-01
1.3431600000e+00,3.9947119661e-01,1.5957723692e-01
1.3538200000e+00,3.9894570129e-01,1.5915767258e-01
1.3644800000e+00,3.9841629265e-01,1.5873554225e-01
1.3751400000e+00,3.9788297588e-01,1.5831086249e-01
1.3858000000e+00,3.9734575620e-01,1.5788364997e-01
1.3964600000e+00,3.9680463890e-01,1.5745392145e-01
1.4071200000e+00,3.9625962928e-01,1.5702169380e-01
1.4177800000e+00,3.9571073268e-01,1.5658698396e-01
1.4284400000e+00,3.9515795449e-01,1.5614980900e-01
1.4391000000e+00,3.9460130013e-01,1.5571018606e-01
1.4497600000e+00,3.9404077506e-01,1.5526813241e-01
1.4604200000e+00,3.9347638478e-01,1.5482366538e-01
1.4710800000e+00,3.9290813483e-01,1.5437680241e-01
1.4817400000e+00,3.9233603077e-01,1.5392756104e-01
1.4924000000e+00,3.9176007823e-01,1.5347595889e-01
1.5030600000e+00,3.9118028285e-01,1.5302201369e-01
1.5137200000e+00,3.9059665031e-01,1.5256574324e-01
1.5243800000e+00,3.9000918635e-01,1.5210716544e-01
1.5350400000e+00,3.8941789673e-01,1.5164629829e-01
1.5457000000e+00,3.8882278724e-01,1.5118315988e-01
1.5563600000e+00,3.8822386373e-01,1.5071776837e-01
1.5670200000e+00,3.8762113206e-01,1.5025014202e-01
1.5776800000e+00,3.8701459816e-01,1.4978029919e-01
1.5883400000e+00,3.8640426796e-01,1.4930825830e-01
1.5990000000e+00,3.8579014747e-01,1.4883403788e-01
1.6096600000e+00,3.8517224269e-01,1.4835765654e-01
1.6203200000e+00,3.8455055970e-01,1.4787913296e-01
1.6309800000e+00,3.8392510458e-01,1.4739848593e-01
1.6416400000e+00,3.8329588348e-01,1.4691573430e-01
1.6523000000e+00,3.8266290257e-01,1.4643089701e-01
1.6629600000e+00,3.8202616806e-01,1.4594399308e-01
1.6736200000e+00,3.8138568619e-01,1.4545504163e-01
1.6842800000e+00,3.8074146325e-01,1.4496406183e-01
1.6949400000e+00,3.8009350554e-01,1.4447107296e-01
1.7056000000e+00,3.7944181944e-01,1.4397609434e-01
1.7162600000e+00,3.7878641134e-01,1.4347914541e-01
1.7269200000e+00,3.7812728765e-01,1.4298024567e-01
1.7375800000e+00,3.7746445485e-01,1.4247941468e-01
1.7482400000e+00,3.7679791944e-01,1.4197667210e-01
1.7589000000e+00,3.7612768796e-01,1.4147203765e-01
1.7695600000e+00,3.7545376698e-01,1.4096553114e-01
1.7802200000e+00,3.7477616312e-01,1.4045717244e-01
1.7908800000e+00,3.7409488301e-01,1.3994698149e-01
1.8015400000e+00,3.7340993334e-01,1.3943497832e-01
1.8122000000e+00,3.7272132084e-01,1.3892118301e-01
1.8228600000e+00,3.7202905225e-01,1.3840561572e-01
1.8335200000e+00,3.7133313437e-01,1.3788829668e-01
1.8441800000e+00,3.7063357401e-01,1.3736924619e-01
1.8548400000e+00,3.6993037806e-01,1.3684848461e-01
1.8655000000e+00,3.6922355339e-01,1.3632603238e-01
1.8761600000e+00,3.6851310695e-01,1.3580191000e-01
1.8868200000e+00,3.6779904571e-01,1.3527613802e-01
1.8974800000e+00,3.6708137666e-01,1.3474873709e-01
1.9081400000e+00,3.6636010686e-01,1.3421972790e-01
1.9188000000e+00,3.6563524336e-01,1.3368913119e-01
1.9294600000e+00,3.6490679329e-01,1.3315696779e-01
1.9401200000e+00,3.6417476379e-01,1.3262325858e-01
1.9507800000e+00,3.6343916204e-01,1.3208802451e-01
1.9614400000e+00,3.6269999526e-01,1.3155128656e-01
1.9721000000e+00,3.6195727069e-01,1.3101306581e-01
1.9827600000e+00,3.6121099562e-01,1.3047338336e-01
1.9934200000e+00,3.6046117738e-01,1.2993226040e-01
2.0040800000e+00,3.5970782331e-01,1.2938971815e-01
2.0147400000e+00,3.5895094081e-01,1.2884577791e-01
2.0254000000e+00,3.5819053730e-01,1.2830046101e-01
2.0360600000e+00,3.5742662025e-01,1.2775378886e-01
2.0467200000e+00,3.5665919713e-01,1.2720578290e-01
2.0573800000e+00,3.5588827549e-01,1.2665646463e-01
2.0680400000e+00,3.5511386288e-01,1.2610585561e-01
2.0787000000e+00,3.5433596690e-01,1.2555397744e-01
2.0893600000e+00,3.5355459518e-01,1.2500085177e-01
2.1000200000e+00,3.5276975538e-01,1.2444650031e-01
2.1106800000e+00,3.5198145521e-01,1.2389094481e-01
2.1213400000e+00,3.5118970240e-01,1.2333420707e-01
2.1320000000e+00,3.5039450471e-01,1.2277630893e-01
2.1426600000e+00,3.4959586994e-01,1.2221727228e-01
2.1533200000e+00,3.4879380593e-01,1.2165711905e-01
2.1639800000e+00,3.4798832054e-01,1.2109587123e-01
2.1746400000e+00,3.4717942167e-01,1.2053355083e-01
2.1853000000e+00,3.4636711727e-01,1.1997017993e-01
2.1959600000e+00,3.4555141530e-01,1.1940578061e-01
2.2066200000e+00,3.4473232375e-01,1.1884037504e-01
2.2172800000e+00,3.4390985067e-01,1.1827398539e-01
2.2279400000e+00,3.4308400412e-01,1.1770663389e-01
2.2386000000e+00,3.4225479221e-01,1.1713834279e-01
2.2492600000e+00,3.4142222306e-01,1.1656913440e-01
2.2599200000e+00,3.4058630484e-01,1.1599903105e-01
2.2705800000e+00,3.3974704576e-01,1.1542805510e-01
2.2812400000e+00,3.3890445404e-01,1.1485622897e-01
2.2919000000e+00,3.3805853795e-01,1.1428357508e-01
2.3025600000e+00,3.3720930580e-01,1.1371011592e-01
2.3132200000e+00,3.3635676590e-01,1.1313587396e-01
2.3238800000e+00,3.3550092662e-01,1.1256087176e-01
2.3345400000e+00,3.3464179636e-01,1.1198513187e-01
2.3452000000e+00,3.3377938354e-01,1.1140867687e-01
2.3558600000e+00,3.3291369662e-01,1.1083152940e-01
2.3665200000e+00,3.3204474410e-01,1.1025371209e-01
2.3771800000e+00,3.3117253450e-01,1.0967524761e-01
2.3878400000e+00,3.3029707637e-01,1.0909615866e-01
2.3985000000e+00,3.2941837831e-01,1.0851646797e-01
2.4091600000e+00,3.2853644892e-01,1.0793619827e-01
2.4198200000e+00,3.2765129687e-01,1.0735537234e-01
2.4304800000e+00,3.2676293083e-01,1.0677401297e-01
2.4411400000e+00,3.2587135952e-01,1.0619214296e-01
2.4518000000e+00,3.2497659169e-01,1.0560978515e-01
2.4624600000e+00,3.2407863611e-01,1.0502696238e-01
2.4731200000e+00,3.2317750158e-01,1.0444369753e-01
2.4837800000e+00,3.2227319696e-01,1.0386001348e-01
2.4944400000e+00,3.2136573110e-01,1.0327593313e-01
2.5051000000e+00,3.2045511292e-01,1.0269147940e-01
2.5157600000e+00,3.1954135134e-01,1.0210667522e-01
2.5264200000e+00,3.1862445532e-01,1.0152154353e-01
2.5370800000e+00,3.1770443387e-01,1.0093610730e-01
2.5477400000e+00,3.1678129600e-01,1.0035038950e-01
2.5584000000e+00,3.1585505077e-01,9.9764413098e-02
2.5690600000e+00,3.1492570727e-01,9.9178201099e-02
2.5797200000e+00,3.1399327461e-01,9.8591776500e-02
2.5903800000e+00,3.1305776194e-01,9.8005162309e-02
2.6010400000e+00,3.1211917843e-01,9.7418381543e-02
2.6117000000e+00,3.1117753329e-01,9.6831457227e-02
2.6223600000e+00,3.1023283577e-01,9.6244412388e-02
2.6330200000e+00,3.0928509512e-01,9.5657270061e-02
2.6436800000e+00,3.0833432064e-01,9.5070053282e-02
2.6543400000e+00,3.0738052165e-01,9.4482785093e-02
2.6650000000e+00,3.0642370753e-01,9.3895488534e-02
2.6756600000e+00,3.0546388764e-01,9.3308186651e-02
2.6863200000e+00,3.0450107141e-01,9.2720902487e-02
2.6969800000e+00,3.0353526827e-01,9.2133659084e-02
2.7076400000e+00,3.0256648771e-01,9.1546479485e-02
2.7183000000e+00,3.0159473922e-01,9.0959386727e-02
2.7289600000e+00,3.0062003235e-01,9.0372403847e-02
2.7396200000e+00,2.9964237664e-01,8.9785553876e-02
2.7502800000e+00,2.9866178169e-01,8.9198859840e-02
2.7609400000e+00,2.9767825711e-01,8.8612344758e-02
2.7716000000e+00,2.9669181257e-01,8.8026031643e-02
2.7822600000e+00,2.9570245772e-01,8.7439943501e-02
2.7929200000e+00,2.9471020228e-01,8.6854103327e-02
2.8035800000e+00,2.9371505598e-01,8.6268534108e-02
2.8142400000e+00,2.9271702858e-01,8.5683258819e-02
2.8249000000e+00,2.9171612987e-01,8.5098300425e-02
2.8355600000e+00,2.9071236967e-01,8.4513681877e-02
2.8462200000e+00,2.8970575782e-01,8.3929426114e-02
2.8568800000e+00,2.8869630420e-01,8.3345556061e-02
2.8675400000e+00,2.8768401872e-01,8.2762094625e-02
2.8782000000e+00,2.8666891129e-01,8.2179064700e-02
2.8888600000e+00,2.8565099188e-01,8.1596489163e-02
2.8995200000e+00,2.8463027047e-01,8.1014390870e-02
2.9101800000e+00,2.8360675708e-01,8.0432792663e-02
2.9208400000e+00,2.8258046175e-01,7.9851717361e-02
2.9315000000e+00,2.8155139453e-01,7.9271187763e-02
2.9421600000e+00,2.8051956553e-01,7.8691226647e-02
2.9528200000e+00,2.7948498487e-01,7.8111856769e-02
2.9634800000e+00,2.7844766270e-01,7.7533100862e-02
2.9741400000e+00,2.7740760918e-01,7.6954981633e-02
2.9848000000e+00,2.7636483453e-01,7.6377521767e-02
2.9954600000e+00,2.7531934898e-01,7.5800743920e-02
3.0061200000e+00,2.7427116276e-01,7.5224670724e-02
3.0167800000e+00,2.7322028618e-01,7.4649324782e-02
3.0274400000e+00,2.7216672954e-01,7.4074728668e-02
3.0381000000e+00,2.7111050317e-01,7.3500904927e-02
3.0487600000e+00,2.7005161743e-01,7.2927876074e-02
3.0594200000e+00,2.6899008271e-01,7.2355664594e-02
3.0700800000e+00,2.6792590942e-01,7.1784292937e-02
3.0807400000e+00,2.6685910800e-01,7.1213783522e-02
3.0914000000e+00,2.6578968892e-01,7.0644158735e-02
3.1020600000e+00,2.6471766266e-01,7.0075440924e-02
3.1127200000e+00,2.6364303974e-01,6.9507652406e-02
3.1233800000e+00,2.6256583071e-01,6.8940815457e-02
3.1340400000e+00,2.6148604613e-01,6.8374952318e-02
3.1447000000e+00,2.6040369658e-01,6.7810085193e-02
3.1553600000e+00,2.5931879269e-01,6.7246236244e-02
3.1660200000e+00,2.5823134511e-01,6.6683427595e-02
3.1766800000e+00,2.5714136448e-01,6.6121681329e-02
3.1873400000e+00,2.5604886152e-01,6.5561019487e-02
3.1980000000e+00,2.5495384693e-01,6.5001464066e-02
3.2086600000e+00,2.5385633146e-01,6.4443037023e-02
3.2193200000e+00,2.5275632587e-01,6.3885760267e-02
3.2299800000e+00,2.5165384095e-01,6.3329655665e-02
3.2406400000e+00,2.5054888752e-01,6.2774745037e-02
3.2513000000e+00,2.4944147641e-01,6.2221050154e-02
3.2619600000e+00,2.4833161849e-01,6.1668592742e-02
3.2726200000e+00,2.4721932464e-01,6.1117394477e-02
3.2832800000e+00,2.4610460578e-01,6.0567476988e-02
3.2939400000e+00,2.4498747284e-01,6.0018861849e-02
3.3046000000e+00,2.4386793678e-01,5.9471570589e-02
3.3152600000e+00,2.4274600857e-01,5.8925624679e-02
3.3259200000e+00,2.4162169923e-01,5.8381045541e-02
3.3365800000e+00,2.4049501979e-01,5.7837854543e-02
3.3472400000e+00,2.3936598129e-01,5.7296072997e-02
3.3579000000e+00,2.3823459481e-01,5.6755722162e-02
3.3685600000e+00,2.3710087144e-01,5.6216823238e-02
3.3792200000e+00,2.3596482232e-01,5.5679397371e-02
3.3898800000e+00,2.3482645857e-01,5.5143465646e-02
3.4005400000e+00,2.3368579138e-01,5.4609049092e-02
3.4112000000e+00,2.3254283192e-01,5.4076168679e-02
3.4218600000e+00,2.3139759142e-01,5.3544845313e-02
3.4325200000e+00,2.3025008109e-01,5.3015099843e-02
3.4431800000e+00,2.2910031221e-01,5.2486953053e-02
3.4538400000e+00,2.2794829604e-01,5.1960425667e-02
3.4645000000e+00,2.2679404389e-01,5.1435538344e-02
3.4751600000e+00,2.2563756708e-01,5.0912311678e-02
3.4858200000e+00,2.2447887695e-01,5.0390766199e-02
3.4964800000e+00,2.2331798488e-01,4.9870922371e-02
3.5071400000e+00,2.2215490224e-01,4.9352800590e-02
3.5178000000e+00,2.2098964045e-01,4.8836421186e-02
3.5284600000e+00,2.1982221093e-01,4.8321804419e-02
3.5391200000e+00,2.1865262514e-01,4.7808970483e-02
3.5497800000e+00,2.1748089456e-01,4.7297939498e-02
3.5604400000e+00,2.1630703066e-01,4.6788731515e-02
3.5711000000e+00,2.1513104498e-01,4.6281366514e-02
3.5817600000e+00,2.1395294904e-01,4.5775864403e-02
3.5924200000e+00,2.1277275440e-01,4.5272245015e-02
3.6030800000e+00,2.1159047264e-01,4.4770528111e-02
3.6137400000e+00,2.1040611535e-01,4.4270733377e-02
3.6244000000e+00,2.0921969415e-01,4.3772880422e-02
3.6350600000e+00,2.0803122069e-01,4.3276988781e-02
3.6457200000e+00,2.0684070661e-01,4.2783077910e-02
3.6563800000e+00,2.0564816360e-01,4.2291167190e-02
3.6670400000e+00,2.0445360335e-01,4.1801275921e-02
3.6777000000e+00,2.0325703758e-01,4.1313423325e-02
3.6883600000e+00,2.0205847803e-01,4.0827628543e-02
3.6990200000e+00,2.0085793645e-01,4.0343910636e-02
3.7096800000e+00,1.9965542463e-01,3.9862288584e-02
3.7203400000e+00,1.9845095435e-01,3.9382781283e-02
3.7310000000e+00,1.9724453744e-01,3.8905407549e-02
3.7416600000e+00,1.9603618572e-01,3.8430186112e-02
3.7523200000e+00,1.9482591105e-01,3.7957135617e-02
3.7629800000e+00,1.9361372530e-01,3.7486274625e-02
3.7736400000e+00,1.9239964036e-01,3.7017621612e-02
3.7843000000e+00,1.9118366815e-01,3.6551194966e-02
3.7949600000e+00,1.8996582058e-01,3.6087012988e-02
3.8056200000e+00,1.8874610960e-01,3.5625093890e-02
3.8162800000e+00,1.8752454719e-01,3.5165455798e-02
3.8269400000e+00,1.8630114531e-01,3.4708116744e-02
3.8376000000e+00,1.8507591598e-01,3.4253094675e-02
3.8482600000e+00,1.8384887120e-01,3.3800407443e-02
3.8589200000e+00,1.8262002303e-01,3.3350072810e-02
3.8695800000e+00,1.8138938350e-01,3.2902108446e-02
3.8802400000e+00,1.8015696469e-01,3.2456531927e-02
3.8909000000e+00,1.7892277870e-01,3.2013360737e-02
3.9015600000e+00,1.7768683762e-01,3.1572612263e-02
3.9122200000e+00,1.7644915358e-01,3.1134303800e-02
3.9228800000e+00,1.7520973873e-01,3.0698452545e-02
3.9335400000e+00,1.7396860521e-01,3.0265075599e-02
3.9442000000e+00,1.7272576521e-01,2.9834189966e-02
3.9548600000e+00,1.7148123091e-01,2.9405812554e-02
3.9655200000e+00,1.7023501452e-01,2.8979960169e-02
3.9761800000e+00,1.6898712827e-01,2.8556649522e-02
3.9868400000e+00,1.6773758440e-01,2.8135897221e-02
3.9975000000e+00,1.6648639516e-01,2.7717719775e-02
4.0081600000e+00,1.6523357283e-01,2.7302133591e-02
4.0188200000e+00,1.6397912970e-01,2.6889154977e-02
4.0294800000e+00,1.6272307807e-01,2.6478800136e-02
4.0401400000e+00,1.6146543026e-01,2.6071085169e-02
4.0508000000e+00,1.6020619861e-01,2.5666026074e-02
4.0614600000e+00,1.5894539547e-01,2.5263638742e-02
4.0721200000e+00,1.5768303321e-01,2.4863938964e-02
4.0827800000e+00,1.5641912422e-01,2.4466942420e-02
4.0934400000e+00,1.5515368088e-01,2.4072664689e-02
4.1041000000e+00,1.5388671561e-01,2.3681121241e-02
4.1147600000e+00,1.5261824084e-01,2.3292327438e-02
4.1254200000e+00,1.5134826902e-01,2.2906298535e-02
4.1360800000e+00,1.5007681259e-01,2.2523049678e-02
4.1467400000e+00,1.4880388404e-01,2.2142595905e-02
4.1574000000e+00,1.4752949585e-01,2.1764952145e-02
4.1680600000e+00,1.4625366051e-01,2.1390133213e-02
4.1787200000e+00,1.4497639055e-01,2.1018153817e-02
4.1893800000e+00,1.4369769849e-01,2.0649028551e-02
4.2000400000e+00,1.4241759688e-01,2.0282771900e-02
4.2107000000e+00,1.4113609827e-01,1.9919398234e-02
4.2213600000e+00,1.3985321523e-01,1.9558921810e-02
4.2320200000e+00,1.3856896035e-01,1.9201356772e-02
4.2426800000e+00,1.3728334622e-01,1.8846717150e-02
4.2533400000e+00,1.3599638546e-01,1.8495016858e-02
4.2640000000e+00,1.3470809069e-01,1.8146269697e-02
4.2746600000e+00,1.3341847454e-01,1.7800489349e-02
4.2853200000e+00,1.3212754967e-01,1.7457689383e-02
4.2959800000e+00,1.3083532874e-01,1.7117883247e-02
4.3066400000e+00,1.2954182443e-01,1.6781084276e-02
4.3173000000e+00,1.2824704941e-01,1.6447305684e-02
4.3279600000e+00,1.2695101641e-01,1.6116560566e-02
4.3386200000e+00,1.2565373811e-01,1.5788861902e-02
4.3492800000e+00,1.2435522726e-01,1.5464222548e-02
4.3599400000e+00,1.2305549659e-01,1.5142655242e-02
4.3706000000e+00,1.2175455885e-01,1.4824172601e-02
4.3812600000e+00,1.2045242680e-01,1.4508787121e-02
4.3919200000e+00,1.1914911321e-01,1.4196511178e-02
4.4025800000e+00,1.1784463086e-01,1.3887357023e-02
4.4132400000e+00,1.1653899256e-01,1.3581336787e-02
4.4239000000e+00,1.1523221111e-01,1.3278462477e-02
4.4345600000e+00,1.1392429933e-01,1.2978745977e-02
4.4452200000e+00,1.1261527004e-01,1.2682199046e-02
4.4558800000e+00,1.1130513609e-01,1.2388833321e-02
4.4665400000e+00,1.0999391034e-01,1.2098660311e-02
4.4772000000e+00,1.0868160563e-01,1.1811691403e-02
4.4878600000e+00,1.0736823485e-01,1.1527937855e-02
4.4985200000e+00,1.0605381088e-01,1.1247410801e-02
4.5091800000e+00,1.0473834660e-01,1.0970121249e-02
4.5198400000e+00,1.0342185493e-01,1.0696080078e-02
4.5305000000e+00,1.0210434878e-01,1.0425298041e-02
4.5411600000e+00,1.0078584108e-01,1.0157785761e-02
4.5518200000e+00,9.9466344742e-02,9.8935537362e-03
4.5624800000e+00,9.8145872726e-02,9.6326123332e-03
4.5731400000e+00,9.6824437982e-02,9.3749717905e-03
4.5838000000e+00,9.5502053471e-02,9.1206422171e-03
4.5944600000e+00,9.4178732164e-02,8.8696335921e-03
4.6051200000e+00,9.2854487043e-02,8.6219557641e-03
4.6157800000e+00,9.1529331097e-02,8.3776184511e-03
4.6264400000e+00,9.0203277325e-02,8.1366312402e-03
4.6371000000e+00,8.8876338734e-02,7.8990035868e-03
4.6477600000e+00,8.7548528341e-02,7.6647448146e-03
4.6584200000e+00,8.6219859169e-02,7.4338641152e-03
4.6690800000e+00,8.4890344253e-02,7.2063705474e-03
4.6797400000e+00,8.3559996634e-02,6.9822730374e-03
4.6904000000e+00,8.2228829361e-02,6.7615803780e-03
4.7010600000e+00,8.0896855491e-02,6.5443012284e-03
4.7117200000e+00,7.9564088092e-02,6.3304441139e-03
4.7223800000e+00,7.8230540235e-02,6.1200174254e-03
4.7330400000e+00,7.6896225002e-02,5.9130294195e-03
4.7437000000e+00,7.5561155481e-02,5.7094882176e-03
4.7543600000e+00,7.4225344768e-02,5.5094018060e-03
4.7650200000e+00,7.2888805967e-02,5.3127780353e-03
4.7756800000e+00,7.1551552188e-02,5.1196246205e-03
4.7863400000e+00,7.0213596548e-02,4.9299491402e-03
4.7970000000e+00,6.8874952171e-02,4.7437590365e-03
4.8076600000e+00,6.7535632188e-02,4.5610616150e-03
4.8183200000e+00,6.6195649737e-02,4.3818640441e-03
4.8289800000e+00,6.4855017962e-02,4.2061733549e-03
4.8396400000e+00,6.3513750014e-02,4.0339964409e-03
4.8503000000e+00,6.2171859049e-02,3.8653400576e-03
4.8609600000e+00,6.0829358230e-02,3.7002108227e-03
4.8716200000e+00,5.9486260726e-02,3.5386152152e-03
4.8822800000e+00,5.8142579711e-02,3.3805595755e-03
4.8929400000e+00,5.6798328367e-02,3.2260501052e-03
4.9036000000e+00,5.5453519878e-02,3.0750928668e-03
4.9142600000e+00,5.4108167436e-02,2.9276937833e-03
4.9249200000e+00,5.2762284239e-02,2.7838586381e-03
4.9355800000e+00,5.1415883487e-02,2.6435930748e-03
4.9462400000e+00,5.0068978389e-02,2.5069025970e-03
4.9569000000e+00,4.8721582156e-02,2.3737925678e-03
4.9675600000e+00,4.7373708005e-02,2.2442682102e-03
4.9782200000e+00,4.6025369158e-02,2.1183346061e-03
4.9888800000e+00,4.4676578840e-02,1.9959966969e-03
4.9995400000e+00,4.3327350282e-02,1.8772592825e-03
5.0102000000e+00,4.1977696720e-02,1.7621270219e-03
5.0208600000e+00,4.0627631391e-02,1.6506044324e-03
5.0315200000e+00,3.9277167539e-02,1.5426958899e-03
5.0421800000e+00,3.7926318411e-02,1.4384056282e-03
5.0528400000e+00,3.6575097257e-02,1.3377377393e-03
5.0635000000e+00,3.5223517332e-02,1.2406961732e-03
5.0741600000e+00,3.3871591894e-02,1.1472847374e-03
5.0848200000e+00,3.2519334204e-02,1.0575070971e-03
5.0954800000e+00,3.1166757526e-02,9.7136677471e-04
5.1061400000e+00,2.9813875129e-02,8.8886715021e-04
5.1168000000e+00,2.8460700283e-02,8.1001146057e-04
5.1274600000e+00,2.7107246260e-02,7.3480279982e-04
5.1381200000e+00,2.5753526339e-02,6.6324411888e-04
5.1487800000e+00,2.4399553796e-02,5.9533822546e-04
5.1594400000e+00,2.3045341915e-02,5.3108778398e-04
5.1701000000e+00,2.1690903978e-02,4.7049531538e-04
5.1807600000e+00,2.0336253271e-02,4.1356319712e-04
5.1914200000e+00,1.8981403083e-02,3.6029366300e-04
5.2020800000e+00,1.7626366703e-02,3.1068880315e-04
5.2127400000e+00,1.6271157423e-02,2.6475056389e-04
5.2234000000e+00,1.4915788537e-02,2.2248074768e-04
5.2340600000e+00,1.3560273339e-02,1.8388101303e-04
5.2447200000e+00,1.2204625127e-02,1.4895287448e-04
5.2553800000e+00,1.0848857197e-02,1.1769770247e-04
5.2660400000e+00,9.4929828486e-03,9.0116723363e-05
5.2767000000e+00,8.1370153823e-03,6.6211019331e-05
5.2873600000e+00,6.7809680986e-03,4.5981528355e-05
5.2980200000e+00,5.4248542994e-03,2.9429044170e-05
5.3086800000e+00,4.0686872869e-03,1.6554216238e-05
5.3193400000e+00,2.7124803639e-03,7.3575497245e-06
5.3300000000e+00,1.3562468338e-03,1.8394054741e-06
